#   t/T       voltage          electron           ion       displacement       total
  0.0000    2.499619e+02    1.520044e+00   -2.012932e-02    0.000000e+00    1.499914e+00
  0.0050    2.497214e+02    1.160795e+00   -2.014992e-02    0.000000e+00    1.140645e+00
  0.0100    2.492344e+02   -1.592090e+00   -2.024104e-02    1.032439e+00   -5.798917e-01
  0.0150    2.485015e+02   -1.302752e+00   -2.027009e-02   -1.145914e+00   -2.468935e+00
  0.0200    2.475234e+02    1.289699e+00   -2.029344e-02   -1.920459e+00   -6.510541e-01
  0.0250    2.463009e+02   -4.670638e+00   -2.033124e-02    6.133606e-01   -4.077609e+00
  0.0300    2.448354e+02   -4.298725e+00   -2.038520e-02    6.111064e-01   -3.708004e+00
  0.0350    2.431283e+02   -4.634651e+00   -2.053886e-02    6.237486e-01   -4.031441e+00
  0.0400    2.411812e+02   -4.297241e+00   -2.055714e-02    9.149356e-01   -3.402863e+00
  0.0450    2.389961e+02   -8.045261e+00   -2.048149e-02    8.208032e-01   -7.244939e+00
  0.0500    2.365752e+02   -5.056948e+00   -2.046778e-02   -3.633786e-01   -5.440795e+00
  0.0550    2.339207e+02   -5.276296e+00   -2.046499e-02   -1.741570e+00   -7.038331e+00
  0.0600    2.310355e+02   -7.005392e+00   -2.047920e-02   -7.315877e-01   -7.757458e+00
  0.0650    2.279222e+02   -9.244977e+00   -2.064510e-02    1.826912e-01   -9.082931e+00
  0.0700    2.245840e+02   -7.817472e+00   -2.068051e-02    8.399706e-01   -6.998182e+00
  0.0750    2.210242e+02   -1.140418e+01   -2.066092e-02    7.610815e-01   -1.066376e+01
  0.0800    2.172462e+02   -1.003311e+01   -2.054258e-02    2.971416e-01   -9.756510e+00
  0.0850    2.132538e+02   -9.194984e+00   -2.045798e-02   -1.617527e+00   -1.083297e+01
  0.0900    2.090510e+02   -8.676363e+00   -2.045738e-02   -1.370639e+00   -1.006746e+01
  0.0950    2.046419e+02   -1.169082e+01   -2.048739e-02   -2.554557e-01   -1.196676e+01
  0.1000    2.000308e+02   -1.210562e+01   -2.051915e-02    7.087507e-01   -1.141739e+01
  0.1050    1.952223e+02   -1.353661e+01   -2.055187e-02    1.489360e+00   -1.206780e+01
  0.1100    1.902211e+02   -1.518259e+01   -2.056593e-02    1.252150e+00   -1.395101e+01
  0.1150    1.850323e+02   -1.226355e+01   -2.052227e-02    1.558233e-01   -1.212825e+01
  0.1200    1.796608e+02   -1.386480e+01   -2.055921e-02    5.104743e-02   -1.383431e+01
  0.1250    1.741120e+02   -1.300810e+01   -2.053807e-02   -7.282793e-01   -1.375691e+01
  0.1300    1.683914e+02   -1.244004e+01   -2.045675e-02   -1.396090e+00   -1.385658e+01
  0.1350    1.625046e+02   -1.411905e+01   -2.044550e-02   -5.113413e-01   -1.465083e+01
  0.1400    1.564574e+02   -1.683142e+01   -2.046369e-02    1.450773e+00   -1.540111e+01
  0.1450    1.502559e+02   -1.684855e+01   -2.022856e-02    1.763006e+00   -1.510577e+01
  0.1500    1.439060e+02   -1.416114e+01   -2.014828e-02   -8.528410e-01   -1.503413e+01
  0.1550    1.374141e+02   -1.690363e+01   -2.014908e-02   -2.648303e-01   -1.718861e+01
  0.1600    1.307867e+02   -1.308600e+01   -2.012296e-02   -2.065390e+00   -1.517152e+01
  0.1650    1.240301e+02   -1.600340e+01   -2.014103e-02   -1.436725e+00   -1.746027e+01
  0.1700    1.171511e+02   -1.820697e+01   -2.024049e-02    1.393053e+00   -1.683415e+01
  0.1750    1.101566e+02   -1.702251e+01   -2.025824e-02    5.068917e-01   -1.653588e+01
  0.1800    1.030533e+02   -1.690790e+01   -2.023648e-02   -9.460888e-01   -1.787423e+01
  0.1850    9.584830e+01   -1.817658e+01   -2.026048e-02    1.745901e-01   -1.802225e+01
  0.1900    8.854873e+01   -1.941868e+01   -2.030955e-02    1.609912e+00   -1.782908e+01
  0.1950    8.116176e+01   -1.694847e+01   -2.033174e-02    3.597136e-01   -1.660909e+01
  0.2000    7.369471e+01   -1.881123e+01   -2.041102e-02    1.400160e-01   -1.869163e+01
  0.2050    6.615492e+01   -1.612620e+01   -2.042261e-02   -1.086746e+00   -1.723337e+01
  0.2100    5.854985e+01   -1.889022e+01   -2.043771e-02    3.351911e-01   -1.857547e+01
  0.2150    5.088699e+01   -2.200288e+01   -2.045502e-02    2.970548e+00   -1.905279e+01
  0.2200    4.317392e+01   -1.526936e+01   -2.048916e-02   -2.185885e+00   -1.747574e+01
  0.2250    3.541823e+01   -1.367048e+01   -2.047264e-02   -3.950879e+00   -1.764183e+01
  0.2300    2.762760e+01   -1.952504e+01   -2.051724e-02    6.625359e-01   -1.888302e+01
  0.2350    1.980970e+01   -2.183066e+01   -2.055839e-02    2.758736e+00   -1.909248e+01
  0.2400    1.197225e+01   -1.837195e+01   -2.056471e-02    7.385587e-01   -1.765396e+01
  0.2450    4.122984e+00   -1.782180e+01   -2.057388e-02   -1.480132e+00   -1.932251e+01
  0.2500   -3.730350e+00   -1.726266e+01   -2.068048e-02   -1.176863e+00   -1.846020e+01
  0.2550   -1.158000e+01   -1.853813e+01   -2.072284e-02    7.402168e-02   -1.848484e+01
  0.2600   -1.941823e+01   -1.903314e+01   -2.071013e-02    9.770040e-01   -1.807685e+01
  0.2650   -2.723729e+01   -1.631580e+01   -2.064861e-02   -1.469490e+00   -1.780594e+01
  0.2700   -3.502947e+01   -1.793099e+01   -2.065873e-02   -6.068293e-01   -1.855848e+01
  0.2750   -4.278708e+01   -1.919973e+01   -2.072654e-02    7.923137e-01   -1.842814e+01
  0.2800   -5.050247e+01   -1.900696e+01   -2.068111e-02    2.112241e-01   -1.881642e+01
  0.2850   -5.816801e+01   -1.748319e+01   -2.060135e-02   -1.561013e-01   -1.765989e+01
  0.2900   -6.577615e+01   -1.847866e+01   -2.058636e-02    7.994214e-01   -1.769983e+01
  0.2950   -7.331938e+01   -2.142747e+01   -2.059741e-02    1.957316e+00   -1.949075e+01
  0.3000   -8.079025e+01   -1.700101e+01   -2.045632e-02   -7.376831e-01   -1.775915e+01
  0.3050   -8.818139e+01   -1.518715e+01   -2.056562e-02   -1.720244e+00   -1.692796e+01
  0.3100   -9.548551e+01   -1.841925e+01   -2.054492e-02    7.731743e-01   -1.766662e+01
  0.3150   -1.026954e+02   -1.747721e+01   -2.056928e-02   -2.293584e-01   -1.772713e+01
  0.3200   -1.098039e+02   -1.605828e+01   -2.060044e-02   -1.299801e+00   -1.737868e+01
  0.3250   -1.168041e+02   -2.035639e+01   -2.061764e-02    1.528464e+00   -1.884854e+01
  0.3300   -1.236890e+02   -1.680316e+01   -2.062973e-02    1.006241e+00   -1.581755e+01
  0.3350   -1.304518e+02   -1.801086e+01   -2.067772e-02   -6.559408e-03   -1.803810e+01
  0.3400   -1.370859e+02   -1.511339e+01   -2.073007e-02    9.040008e-01   -1.423012e+01
  0.3450   -1.435847e+02   -1.908334e+01   -2.046647e-02    4.741145e-01   -1.862969e+01
  0.3500   -1.499418e+02   -1.475244e+01   -2.043621e-02   -1.019653e-01   -1.487484e+01
  0.3550   -1.561510e+02   -1.643561e+01   -2.041137e-02    2.012198e-01   -1.625480e+01
  0.3600   -1.622060e+02   -1.539449e+01   -2.040641e-02   -7.608303e-01   -1.617572e+01
  0.3650   -1.681010e+02   -1.377978e+01   -2.029489e-02   -1.707281e+00   -1.550736e+01
  0.3700   -1.738300e+02   -1.248946e+01   -2.029528e-02   -4.664889e-01   -1.297624e+01
  0.3750   -1.793875e+02   -1.760529e+01   -2.022096e-02    3.474544e-02   -1.759077e+01
  0.3800   -1.847680e+02   -1.175625e+01   -2.022708e-02   -1.075899e-01   -1.188407e+01
  0.3850   -1.899661e+02   -1.649167e+01   -2.026535e-02    1.575952e+00   -1.493598e+01
  0.3900   -1.949768e+02   -1.451496e+01   -2.029593e-02    1.172308e+00   -1.336294e+01
  0.3950   -1.997950e+02   -1.387064e+01   -2.030393e-02   -5.682055e-01   -1.445915e+01
  0.4000   -2.044161e+02   -1.383092e+01   -2.030571e-02    3.004526e-01   -1.355077e+01
  0.4050   -2.088354e+02   -1.061915e+01   -2.027776e-02   -7.820635e-01   -1.142149e+01
  0.4100   -2.130486e+02   -1.101210e+01   -2.028348e-02   -1.356330e+00   -1.238871e+01
  0.4150   -2.170516e+02   -1.100812e+01   -2.022785e-02   -1.243405e+00   -1.227176e+01
  0.4200   -2.208404e+02   -1.003556e+01   -2.025966e-02    6.674420e-01   -9.388378e+00
  0.4250   -2.244112e+02   -1.427049e+01   -2.029371e-02    2.807994e+00   -1.148279e+01
  0.4300   -2.277606e+02   -9.952461e+00   -2.029162e-02   -1.908813e-01   -1.016363e+01
  0.4350   -2.308852e+02   -9.276682e+00   -2.026599e-02   -9.583998e-02   -9.392788e+00
  0.4400   -2.337819e+02   -8.281533e+00   -2.044371e-02   -1.285353e-01   -8.430512e+00
  0.4450   -2.364480e+02   -5.982861e+00   -2.036786e-02   -1.658911e+00   -7.662139e+00
  0.4500   -2.388806e+02   -8.266396e+00   -2.039204e-02   -8.302106e-01   -9.116999e+00
  0.4550   -2.410776e+02   -1.014901e+01   -2.039970e-02    2.734468e+00   -7.434940e+00
  0.4600   -2.430366e+02   -9.997193e+00   -2.040439e-02    3.072087e+00   -6.945511e+00
  0.4650   -2.447558e+02   -4.906430e+00   -2.033114e-02    4.502050e-01   -4.476556e+00
  0.4700   -2.462334e+02   -3.440066e+00   -2.028179e-02   -1.024844e+00   -4.485192e+00
  0.4750   -2.474680e+02    7.053733e-01   -2.021524e-02   -3.687167e+00   -3.002009e+00
  0.4800   -2.484584e+02   -2.569000e+00   -2.022548e-02   -1.872354e+00   -4.461579e+00
  0.4850   -2.492036e+02   -4.290126e+00   -2.031158e-02    1.832796e+00   -2.477642e+00
  0.4900   -2.497029e+02   -2.762249e+00   -2.027836e-02    2.266885e+00   -5.156426e-01
  0.4950   -2.499557e+02   -2.502079e+00   -2.027481e-02    2.608752e-01   -2.261479e+00
  0.5000   -2.499619e+02    8.118628e-01   -2.025857e-02   -7.310578e-01    6.054633e-02
  0.5050   -2.497214e+02   -1.104661e+00   -2.030131e-02    2.719196e-01   -8.530432e-01
  0.5100   -2.492344e+02    3.529230e-01   -2.027858e-02    2.938048e-01    6.264492e-01
  0.5150   -2.485015e+02    1.650032e+00   -2.027970e-02    4.384901e-01    2.068243e+00
  0.5200   -2.475234e+02    1.085848e+00   -2.027765e-02    3.511067e-01    1.416677e+00
  0.5250   -2.463009e+02    6.388130e+00   -2.029413e-02   -3.104745e+00    3.263091e+00
  0.5300   -2.448354e+02    6.021769e+00   -2.023543e-02   -1.530410e+00    4.471124e+00
  0.5350   -2.431283e+02   -3.024921e-01   -2.028335e-02    3.224205e+00    2.901429e+00
  0.5400   -2.411812e+02    2.163425e+00   -2.033289e-02    2.375380e+00    4.518471e+00
  0.5450   -2.389961e+02    5.299765e+00   -2.033223e-02    8.284927e-01    6.107925e+00
  0.5500   -2.365752e+02    7.103763e+00   -2.030988e-02   -6.209090e-01    6.462545e+00
  0.5550   -2.339207e+02    9.084641e+00   -2.027852e-02   -2.714612e+00    6.349751e+00
  0.5600   -2.310355e+02    9.056995e+00   -2.029597e-02   -1.335206e+00    7.701493e+00
  0.5650   -2.279222e+02    4.632042e+00   -2.031087e-02    1.305326e+00    5.917057e+00
  0.5700   -2.245840e+02    7.529902e+00   -2.031131e-02    1.589319e+00    9.098909e+00
  0.5750   -2.210242e+02    1.065295e+01   -2.030934e-02   -1.092835e+00    9.539810e+00
  0.5800   -2.172462e+02    1.061226e+01   -2.022538e-02   -7.494892e-01    9.842543e+00
  0.5850   -2.132538e+02    1.020852e+01   -2.022398e-02    4.943215e-01    1.068262e+01
  0.5900   -2.090510e+02    1.118220e+01   -2.022625e-02   -9.632109e-01    1.019876e+01
  0.5950   -2.046419e+02    1.208123e+01   -2.025339e-02   -1.907916e-01    1.187019e+01
  0.6000   -2.000308e+02    1.096267e+01   -2.027640e-02    8.412542e-01    1.178365e+01
  0.6050   -1.952223e+02    1.205000e+01   -2.036938e-02    1.120719e+00    1.315035e+01
  0.6100   -1.902211e+02    1.173561e+01   -2.041500e-02    1.040749e+00    1.275594e+01
  0.6150   -1.850323e+02    1.176498e+01   -2.042848e-02    5.969820e-01    1.234153e+01
  0.6200   -1.796608e+02    1.571568e+01   -2.040805e-02   -7.648312e-01    1.493044e+01
  0.6250   -1.741120e+02    1.319937e+01   -2.039620e-02   -8.388616e-01    1.234011e+01
  0.6300   -1.683914e+02    1.638617e+01   -2.038529e-02   -3.694344e-01    1.599635e+01
  0.6350   -1.625046e+02    1.408476e+01   -2.039403e-02   -4.788458e-01    1.358552e+01
  0.6400   -1.564574e+02    1.540475e+01   -2.029991e-02   -3.867212e-01    1.499773e+01
  0.6450   -1.502559e+02    1.469328e+01   -2.017324e-02   -1.323963e-01    1.454071e+01
  0.6500   -1.439060e+02    1.697295e+01   -2.017595e-02    4.126894e-01    1.736546e+01
  0.6550   -1.374141e+02    1.039545e+01   -2.014438e-02    2.849132e+00    1.322444e+01
  0.6600   -1.307867e+02    1.632874e+01   -2.007541e-02    9.452719e-01    1.725393e+01
  0.6650   -1.240301e+02    1.845795e+01   -2.007268e-02   -1.185389e+00    1.725249e+01
  0.6700   -1.171511e+02    1.599133e+01   -2.005130e-02    4.448243e-01    1.641610e+01
  0.6750   -1.101566e+02    1.820481e+01   -2.001877e-02   -4.807307e-01    1.770406e+01
  0.6800   -1.030533e+02    1.875191e+01   -1.997543e-02   -1.402477e+00    1.732945e+01
  0.6850   -9.584830e+01    1.989063e+01   -1.996013e-02   -2.452142e+00    1.741853e+01
  0.6900   -8.854873e+01    1.816304e+01   -1.996640e-02   -8.138388e-01    1.732923e+01
  0.6950   -8.116176e+01    1.597421e+01   -2.002852e-02    1.731649e+00    1.768583e+01
  0.7000   -7.369471e+01    1.457850e+01   -2.007878e-02    2.835608e+00    1.739403e+01
  0.7050   -6.615492e+01    1.564271e+01   -2.003341e-02    2.998409e+00    1.862109e+01
  0.7100   -5.854985e+01    1.846648e+01   -1.999870e-02   -1.894196e-01    1.825706e+01
  0.7150   -5.088699e+01    2.104077e+01   -1.994019e-02   -3.041665e+00    1.797917e+01
  0.7200   -4.317392e+01    2.216771e+01   -1.997288e-02   -3.395994e+00    1.875175e+01
  0.7250   -3.541823e+01    1.967442e+01   -2.000394e-02   -1.004764e+00    1.864966e+01
  0.7300   -2.762760e+01    1.712998e+01   -2.004519e-02    1.362135e+00    1.847206e+01
  0.7350   -1.980970e+01    1.854748e+01   -2.007837e-02    3.005162e-01    1.882792e+01
  0.7400   -1.197225e+01    1.620536e+01   -2.008710e-02    8.727161e-01    1.705799e+01
  0.7450   -4.122984e+00    1.640201e+01   -2.012114e-02    2.185220e+00    1.856711e+01
  0.7500    3.730350e+00    1.912054e+01   -1.997949e-02    1.647545e-01    1.926532e+01
  0.7550    1.158000e+01    1.868399e+01   -1.995056e-02   -4.315957e-01    1.823244e+01
  0.7600    1.941823e+01    1.961112e+01   -1.989426e-02   -4.451329e-01    1.914610e+01
  0.7650    2.723729e+01    2.016496e+01   -1.992538e-02   -2.351246e+00    1.779378e+01
  0.7700    3.502947e+01    2.071334e+01   -1.991900e-02   -8.136382e-01    1.987978e+01
  0.7750    4.278708e+01    1.866774e+01   -1.987661e-02    8.901574e-01    1.953802e+01
  0.7800    5.050247e+01    1.696584e+01   -1.984957e-02    8.780553e-01    1.782404e+01
  0.7850    5.816801e+01    1.784307e+01   -1.988171e-02    9.791231e-01    1.880231e+01
  0.7900    6.577615e+01    1.770630e+01   -1.992826e-02    3.335757e-01    1.801995e+01
  0.7950    7.331938e+01    1.996919e+01   -1.985342e-02   -1.743097e+00    1.820624e+01
  0.8000    8.079025e+01    1.878693e+01   -1.981783e-02   -3.387740e-01    1.842834e+01
  0.8050    8.818139e+01    1.431665e+01   -1.977121e-02    1.449372e+00    1.574625e+01
  0.8100    9.548551e+01    2.082211e+01   -1.971002e-02   -2.275379e-01    2.057487e+01
  0.8150    1.026954e+02    1.626981e+01   -1.970485e-02    3.171605e-01    1.656726e+01
  0.8200    1.098039e+02    1.752488e+01   -1.967386e-02    1.303678e+00    1.880888e+01
  0.8250    1.168041e+02    1.679489e+01   -1.972626e-02   -4.654291e-03    1.677051e+01
  0.8300    1.236890e+02    2.002870e+01   -1.975972e-02   -1.819459e+00    1.818948e+01
  0.8350    1.304518e+02    1.796988e+01   -1.979291e-02   -2.025463e+00    1.592462e+01
  0.8400    1.370859e+02    1.775857e+01   -1.982057e-02   -5.547016e-01    1.718405e+01
  0.8450    1.435847e+02    1.645531e+01   -1.987393e-02    1.497336e+00    1.793278e+01
  0.8500    1.499418e+02    1.493988e+01   -1.995253e-02    5.641103e-01    1.548404e+01
  0.8550    1.561510e+02    1.796376e+01   -1.982683e-02   -1.021338e-01    1.784180e+01
  0.8600    1.622060e+02    1.336034e+01   -1.982136e-02    5.617869e-01    1.390231e+01
  0.8650    1.681010e+02    1.599574e+01   -1.984054e-02    7.036104e-01    1.667951e+01
  0.8700    1.738300e+02    1.548087e+01   -1.993877e-02   -6.094709e-01    1.485146e+01
  0.8750    1.793875e+02    1.857516e+01   -1.996157e-02   -1.826166e+00    1.672903e+01
  0.8800    1.847680e+02    1.286947e+01   -1.999292e-02    3.604578e-01    1.320994e+01
  0.8850    1.899661e+02    1.280844e+01   -2.007291e-02    1.446227e+00    1.423460e+01
  0.8900    1.949768e+02    1.237992e+01   -2.008529e-02    1.406345e+00    1.376618e+01
  0.8950    1.997950e+02    1.422245e+01   -2.008301e-02   -1.767407e-01    1.402563e+01
  0.9000    2.044161e+02    1.628894e+01   -2.006376e-02   -1.819659e+00    1.444922e+01
  0.9050    2.088354e+02    1.253115e+01   -2.012945e-02   -2.058390e-01    1.230518e+01
  0.9100    2.130486e+02    1.343684e+01   -2.014052e-02   -7.418573e-01    1.267484e+01
  0.9150    2.170516e+02    1.299934e+01   -2.007782e-02   -1.349988e+00    1.162927e+01
  0.9200    2.208404e+02    1.096169e+01   -2.016750e-02    1.320075e+00    1.226160e+01
  0.9250    2.244112e+02    7.735215e+00   -2.019766e-02    2.406598e+00    1.012162e+01
  0.9300    2.277606e+02    1.218072e+01   -2.010103e-02   -8.341185e-01    1.132650e+01
  0.9350    2.308852e+02    1.153169e+01   -2.012014e-02   -9.132517e-01    1.059832e+01
  0.9400    2.337819e+02    6.708512e+00   -2.015343e-02    1.299282e+00    7.987640e+00
  0.9450    2.364480e+02    1.046444e+01   -2.020623e-02   -3.681946e-01    1.007604e+01
  0.9500    2.388806e+02    9.063833e+00   -2.021821e-02   -1.710270e+00    7.333344e+00
  0.9550    2.410776e+02    9.683544e+00   -2.022951e-02   -1.864981e+00    7.798333e+00
  0.9600    2.430366e+02    3.797106e+00   -2.022338e-02    1.193788e+00    4.970671e+00
  0.9650    2.447558e+02    4.407207e+00   -2.023963e-02    2.550079e+00    6.937046e+00
  0.9700    2.462334e+02    3.019639e+00   -2.024969e-02    7.674011e-01    3.766791e+00
  0.9750    2.474680e+02    5.799136e+00   -2.017286e-02   -8.839055e-01    4.895057e+00
  0.9800    2.484584e+02    4.338500e+00   -2.017490e-02   -9.372547e-01    3.381071e+00
  0.9850    2.492036e+02    4.621648e+00   -2.019186e-02   -3.519144e-01    4.249542e+00
  0.9900    2.497029e+02    2.130840e+00   -2.020158e-02    0.000000e+00    2.110639e+00
  0.9950    2.499557e+02    8.563852e-01   -2.023300e-02    0.000000e+00    8.361522e-01
